# Matter power spectrum P(k) at redshift z=0
# for k=1.04962e-05 to 33.2257 h/Mpc,
# number of wavenumbers equal to 127
#    1:k (h/Mpc)              2:P (Mpc/h)^3        
       1.049615931175e-05       5.147657844456e+01 
       1.321388168381e-05       6.423902897574e+01 
       1.663529144018e-05       8.016556541293e+01 
       2.094259112665e-05       1.000405630511e+02 
       2.636516015815e-05       1.248427544310e+02 
       3.319177010912e-05       1.557933673699e+02 
       4.178596285281e-05       1.944159940875e+02 
       5.260541049168e-05       2.426112556333e+02 
       6.622628806585e-05       3.027495206010e+02 
       8.337395697489e-05       3.777859414570e+02 
       1.049615931175e-04       4.714026532486e+02 
       1.321388168381e-04       5.881835309476e+02 
       1.663529144018e-04       7.338271281268e+02 
       2.094259112665e-04       9.154025906365e+02 
       2.636516015815e-04       1.141650756839e+03 
       3.319177010912e-04       1.423327122087e+03 
       4.178596285281e-04       1.773573884389e+03 
       5.260541049169e-04       2.208295608605e+03 
       6.622628806585e-04       2.746498917033e+03 
       8.337395697489e-04       3.410534316517e+03 
       1.049615931175e-03       4.226105331565e+03 
       1.321388168381e-03       5.221746033021e+03 
       1.663529144018e-03       6.427385702371e+03 
       2.094259112665e-03       7.871669321437e+03 
       2.636516015815e-03       9.577413852600e+03 
       3.319177010912e-03       1.155484977178e+04 
       4.178596285281e-03       1.379248505114e+04 
       5.260541049169e-03       1.624469522914e+04 
       6.622628806585e-03       1.881709224986e+04 
       8.337395697489e-03       2.134985304020e+04 
       1.049615931175e-02       2.360258750623e+04 
       1.321388168381e-02       2.524496411437e+04 
       1.663529144015e-02       2.587335402866e+04 
       2.094259093358e-02       2.509430764950e+04 
       2.636501855751e-02       2.273082086074e+04 
       3.317275609789e-02       1.915145225940e+04 
       4.117028741936e-02       1.559622932711e+04 
       4.786471822073e-02       1.357233066490e+04 
       5.272857463058e-02       1.256861714983e+04 
       5.674724358842e-02       1.193662698618e+04 
       6.033899051184e-02       1.145606062760e+04 
       6.369087791058e-02       1.103442060018e+04 
       6.690216546730e-02       1.062502980812e+04 
       7.003247736120e-02       1.020310519787e+04 
       7.312103166301e-02       9.756802296087e+03 
       7.619549758725e-02       9.283337315554e+03 
       7.927653673305e-02       8.786673227306e+03 
       8.238032967854e-02       8.275759768013e+03 
       8.552007456334e-02       7.762918841309e+03 
       8.870692267757e-02       7.262235961316e+03 
       9.195058748253e-02       6.787672610927e+03 
       9.525975493405e-02       6.351679445776e+03 
       9.864236791423e-02       5.963808503707e+03 
       1.021058280651e-01       5.629681380970e+03 
       1.056571417477e-01       5.350325823911e+03 
       1.093030271717e-01       5.122143541257e+03 
       1.130499938926e-01       4.936793084986e+03 
       1.169044022397e-01       4.781962851038e+03 
       1.208725079215e-01       4.642397019366e+03 
       1.249604955540e-01       4.501767029216e+03 
       1.291745038698e-01       4.345126128200e+03 
       1.335206447074e-01       4.162014417964e+03 
       1.380050174443e-01       3.948822400819e+03 
       1.426337202456e-01       3.710174325934e+03 
       1.474128593106e-01       3.457806284924e+03 
       1.523485571728e-01       3.208243044785e+03 
       1.574469610339e-01       2.978293850790e+03 
       1.627142520580e-01       2.781055607189e+03 
       1.681566565258e-01       2.622638037886e+03 
       1.737804597268e-01       2.500467396295e+03 
       1.795920234548e-01       2.404001000797e+03 
       1.855978079626e-01       2.318101917750e+03 
       1.918043992299e-01       2.226129105198e+03 
       1.982185423983e-01       2.115630802357e+03 
       2.048471822440e-01       1.984958805476e+03 
       2.116975115892e-01       1.843612801884e+03 
       2.187770286152e-01       1.706510514527e+03 
       2.260936041331e-01       1.586617484147e+03 
       2.336555600244e-01       1.490312226833e+03 
       2.414717602743e-01       1.415353378980e+03 
       2.495517163331e-01       1.351221295961e+03 
       2.579057089602e-01       1.285085036818e+03 
       2.665449292714e-01       1.209620031301e+03 
       2.754816424689e-01       1.126423060152e+03 
       2.847293787343e-01       1.044389107802e+03 
       2.943031570861e-01       9.731771732373e+02 
       3.042197497613e-01       9.152025449178e+02 
       3.144979970145e-01       8.652685113645e+02 
       3.251591853633e-01       8.156492668528e+02 
       3.362275065690e-01       7.621678606812e+02 
       3.477306204760e-01       7.079088502579e+02 
       3.597003529601e-01       6.583961859350e+02 
       3.721735716982e-01       6.159175135045e+02 
       3.851932989059e-01       5.771292815187e+02 
       3.988101441581e-01       5.381668345787e+02 
       4.130841760173e-01       4.990356981019e+02 
       4.280874051803e-01       4.625834577069e+02 
       4.439071355366e-01       4.296076376557e+02 
       4.606505724552e-01       3.983308166746e+02 
       4.784512945729e-01       3.673705809689e+02 
       4.974785603450e-01       3.378839406253e+02 
       5.179510558978e-01       3.104642690980e+02 
       5.401578396427e-01       2.837726059689e+02 
       5.644914092968e-01       2.579433014382e+02 
       5.915021237723e-01       2.332202516770e+02 
       6.219922530160e-01       2.089615894462e+02 
       6.571881446088e-01       1.852199503510e+02 
       6.990774248951e-01       1.615606795989e+02 
       7.511222483067e-01       1.376942775921e+02 
       8.198892963002e-01       1.130959774451e+02 
       9.188990552105e-01       8.729821049623e+01 
       1.075680404489e+00       6.075235530983e+01 
       1.324834889789e+00       3.731406670968e+01 
       1.665265703079e+00       2.164297758087e+01 
       2.096397260555e+00       1.239328687647e+01 
       2.639207611469e+00       7.037779712582e+00 
       3.322565528991e+00       3.966694072322e+00 
       4.182862176798e+00       2.220885460112e+00 
       5.265911488404e+00       1.235860831828e+00 
       6.629389789010e+00       6.839073962058e-01 
       8.345907270074e+00       3.765294392889e-01 
       1.050687474677e+01       2.063159958005e-01 
       1.322737161725e+01       1.125527859659e-01 
       1.665227426020e+01       6.116764462115e-02 
       2.096397123034e+01       3.309956478286e-02 
       2.639207611399e+01       1.784959856604e-02 
       3.322565528991e+01       9.581839097610e-03 
