# Matter power spectrum P(k) at redshift z=0.5
# for k=1.06028e-05 to 33.5632 h/Mpc,
# number of wavenumbers equal to 127
#    1:k (h/Mpc)              2:P (Mpc/h)^3        
       1.060282293162e-05       2.946751074246e+01 
       1.334816322537e-05       3.677330754212e+01 
       1.680434188519e-05       4.589039198894e+01 
       2.115541302774e-05       5.726774500953e+01 
       2.663308705763e-05       7.146566196892e+01 
       3.352907009137e-05       8.918322966604e+01 
       4.221059837185e-05       1.112926546752e+02 
       5.313999493737e-05       1.388819774757e+02 
       6.689929000926e-05       1.733081913408e+02 
       8.422121622365e-05       2.162631312990e+02 
       1.060282293162e-04       2.698549504028e+02 
       1.334816322537e-04       3.367083064103e+02 
       1.680434188519e-04       4.200560567341e+02 
       2.115541302774e-04       5.239906981102e+02 
       2.663308705763e-04       6.534967515777e+02 
       3.352907009137e-04       8.147316790785e+02 
       4.221059837185e-04       1.015218039066e+03 
       5.313999493737e-04       1.264053063770e+03 
       6.689929000926e-04       1.572089086338e+03 
       8.422121622365e-04       1.952048222208e+03 
       1.060282293162e-03       2.418510893483e+03 
       1.334816322537e-03       2.987629804374e+03 
       1.680434188519e-03       3.676290759990e+03 
       2.115541302774e-03       4.500492745884e+03 
       2.663308705763e-03       5.472725845355e+03 
       3.352907009137e-03       6.598047289937e+03 
       4.221059837185e-03       7.868817505402e+03 
       5.313999493737e-03       9.257585138810e+03 
       6.689929000926e-03       1.070869772647e+04 
       8.422121622365e-03       1.212908865794e+04 
       1.060282293162e-02       1.337975668592e+04 
       1.334816322537e-02       1.427130726831e+04 
       1.680434188514e-02       1.457530693537e+04 
       2.115541275910e-02       1.407472962393e+04 
       2.663290556023e-02       1.268524185760e+04 
       3.350627432149e-02       1.064071995370e+04 
       4.151604071160e-02       8.665856333302e+03 
       4.810673300654e-02       7.569984698690e+03 
       5.291818474813e-02       7.022010405495e+03 
       5.691194954543e-02       6.673503970572e+03 
       6.049017502581e-02       6.406591883295e+03 
       6.383420650910e-02       6.171549331526e+03 
       6.704088535312e-02       5.943325074481e+03 
       7.016864922903e-02       5.708700216638e+03 
       7.325606825368e-02       5.461567649557e+03 
       7.633042894288e-02       5.200607488157e+03 
       7.941215319458e-02       4.928163994072e+03 
       8.251726458186e-02       4.649197856506e+03 
       8.565885481206e-02       4.370401745153e+03 
       8.884800110568e-02       4.099307141786e+03 
       9.209436435074e-02       3.843303929404e+03 
       9.540659265569e-02       3.608921886001e+03 
       9.879260140368e-02       3.400951129642e+03 
       1.022597721630e-01       3.222183583060e+03 
       1.058150966380e-01       3.072860324150e+03 
       1.094652823839e-01       2.950765699069e+03 
       1.132168312856e-01       2.851233871323e+03 
       1.170760982385e-01       2.767598345764e+03 
       1.210493351972e-01       2.691660936600e+03 
       1.251427242877e-01       2.614860771406e+03 
       1.293624027029e-01       2.529486463004e+03 
       1.337144814595e-01       2.430271277431e+03 
       1.382050596644e-01       2.315675954713e+03 
       1.428402356518e-01       2.188318781538e+03 
       1.476261161668e-01       2.054624865218e+03 
       1.525688246470e-01       1.923130977227e+03 
       1.576745095789e-01       1.802498854193e+03 
       1.629493538555e-01       1.699251788689e+03 
       1.683995860324e-01       1.616144820439e+03 
       1.740314943596e-01       1.551576917313e+03 
       1.798514444552e-01       1.499864686586e+03 
       1.858659014751e-01       1.453209721188e+03 
       1.920814576337e-01       1.403143245163e+03 
       1.985048659290e-01       1.343640286764e+03 
       2.051430809449e-01       1.274224175961e+03 
       2.120033076323e-01       1.199964457460e+03 
       2.190930590357e-01       1.128403453683e+03 
       2.264202240281e-01       1.065861107954e+03 
       2.339931462715e-01       1.015250098047e+03 
       2.418207158408e-01       9.751315441637e+02 
       2.499124752591e-01       9.401334856055e+02 
       2.582787421228e-01       9.039328075744e+02 
       2.669307510649e-01       8.631943692951e+02 
       2.758808185745e-01       8.189469492106e+02 
       2.851425352035e-01       7.756426122201e+02 
       2.947309910293e-01       7.378387519779e+02 
       3.046630420214e-01       7.064392153889e+02 
       3.149576273246e-01       6.787724677758e+02 
       3.256361506489e-01       6.511610937732e+02 
       3.367229432721e-01       6.217805705540e+02 
       3.482458320828e-01       5.922422840535e+02 
       3.602368443365e-01       5.650955461594e+02 
       3.727330924395e-01       5.412540652732e+02 
       3.857778987778e-01       5.190442725900e+02 
       3.994222449863e-01       4.967461941535e+02 
       4.137266663052e-01       4.744541799968e+02 
       4.287637666749e-01       4.534444779982e+02 
       4.446216155796e-01       4.339727165092e+02 
       4.614084233770e-01       4.151920839350e+02 
       4.792591136726e-01       3.965294929662e+02 
       4.983447849935e-01       3.784891818282e+02 
       5.188867054796e-01       3.612283113453e+02 
       5.411776646241e-01       3.441377712346e+02 
       5.656157401211e-01       3.272464977008e+02 
       5.927599816744e-01       3.105479769166e+02 
       6.234268663119e-01       2.936776746945e+02 
       6.588673545861e-01       2.764937164188e+02 
       7.011147796237e-01       2.585735916421e+02 
       7.537232935068e-01       2.393910458045e+02 
       8.234604926499e-01       2.180395499953e+02 
       9.242981558938e-01       1.931044265466e+02 
       1.084498564909e+00       1.630229698699e+02 
       1.337989474739e+00       1.295339589034e+02 
       1.682173900005e+00       9.913538116845e+01 
       2.117692548365e+00       7.389380348253e+01 
       2.666016833910e+00       5.342184203869e+01 
       3.356316340421e+00       3.734105519139e+01 
       4.225351930976e+00       2.523798404692e+01 
       5.319402919679e+00       1.654464017173e+01 
       6.696731511156e+00       1.056685858138e+01 
       8.430685475357e+00       6.606365363518e+00 
       1.061360418377e+01       4.060732309788e+00 
       1.336173601767e+01       2.463290610934e+00 
       1.682142901833e+01       1.479288632757e+00 
       2.117692445387e+01       8.816483228891e-01 
       2.666016833863e+01       5.224919941158e-01 
       3.356316340421e+01       3.083488160536e-01 
