# Matter power spectrum P(k) at redshift z=1
# for k=1.03693e-05 to 32.8247 h/Mpc,
# number of wavenumbers equal to 127
#    1:k (h/Mpc)              2:P (Mpc/h)^3        
       1.036925660231e-05       1.964512370350e+01 
       1.305412063806e-05       2.451569923011e+01 
       1.643416419988e-05       3.059379466361e+01 
       2.068938693283e-05       3.817875788072e+01 
       2.604639496418e-05       4.764412506926e+01 
       3.279046850604e-05       5.945597407837e+01 
       4.128075406689e-05       7.419580278911e+01 
       5.196939031283e-05       9.258904529838e+01 
       6.542558610027e-05       1.155404819363e+02 
       8.236593292316e-05       1.441782475156e+02 
       1.036925660231e-04       1.799082441428e+02 
       1.305412063806e-04       2.244811553116e+02 
       1.643416419988e-04       2.800607885383e+02 
       2.068938693283e-04       3.493690846433e+02 
       2.604639496418e-04       4.357405090459e+02 
       3.279046850604e-04       5.432928189019e+02 
       4.128075406689e-04       6.770631728491e+02 
       5.196939031283e-04       8.431523802120e+02 
       6.542558610027e-04       1.048848822609e+03 
       8.236593292316e-04       1.302705510463e+03 
       1.036925660231e-03       1.614536023709e+03 
       1.305412063806e-03       1.995256305117e+03 
       1.643416419988e-03       2.456389937307e+03 
       2.068938693283e-03       3.009004022158e+03 
       2.604639496418e-03       3.661989909902e+03 
       3.279046850604e-03       4.419498000270e+03 
       4.128075406689e-03       5.277445033584e+03 
       5.196939031283e-03       6.218801411749e+03 
       6.542558610027e-03       7.207972546168e+03 
       8.236593292316e-03       8.184266083271e+03 
       1.036925660231e-02       9.056454086259e+03 
       1.305412063806e-02       9.698672589853e+03 
       1.643416419986e-02       9.956649945140e+03 
       2.068938680376e-02       9.678269770591e+03 
       2.604629037475e-02       8.791056399858e+03 
       3.277523661384e-02       7.426444222121e+03 
       4.075020544775e-02       6.043565370535e+03 
       4.756944096828e-02       5.236869131475e+03 
       5.249879919256e-02       4.840898527678e+03 
       5.654836530934e-02       4.594193000704e+03 
       6.015680518742e-02       4.408037841602e+03 
       6.351837274751e-02       4.245794194891e+03 
       6.673534423251e-02       4.089280664198e+03 
       6.986881481092e-02       3.928838446556e+03 
       7.295880231449e-02       3.759874421737e+03 
       7.603344677122e-02       3.581254833197e+03 
       7.911370394091e-02       3.394378494156e+03 
       8.221594671203e-02       3.202527807161e+03 
       8.535350339956e-02       3.010219070975e+03 
       8.853761578638e-02       2.822605067329e+03 
       9.177806151142e-02       2.644821338286e+03 
       9.508357270563e-02       2.481426367485e+03 
       9.846212578945e-02       2.335898748165e+03 
       1.019211468843e-01       2.210287248840e+03 
       1.054676602261e-01       2.104956486771e+03 
       1.091083970228e-01       2.018557890012e+03 
       1.128498761936e-01       1.948051309736e+03 
       1.166984647077e-01       1.888923307957e+03 
       1.206604228668e-01       1.835644786781e+03 
       1.247419383418e-01       1.782305832121e+03 
       1.289491517627e-01       1.723494895992e+03 
       1.332881759917e-01       1.655428094972e+03 
       1.377651107595e-01       1.576748408298e+03 
       1.423860540515e-01       1.489021853296e+03 
       1.471571114322e-01       1.396426822409e+03 
       1.520844043707e-01       1.304758064981e+03 
       1.571740785486e-01       1.220040484818e+03 
       1.624323130815e-01       1.146954302344e+03 
       1.678653315531e-01       1.087669858695e+03 
       1.734794157412e-01       1.041417131162e+03 
       1.792809229020e-01       1.004505959003e+03 
       1.852763074682e-01       9.716178393911e+02 
       1.914721480159e-01       9.369618398319e+02 
       1.978751803527e-01       8.960921841903e+02 
       2.044923375977e-01       8.483026564259e+02 
       2.113307981510e-01       7.967611671983e+02 
       2.183980425119e-01       7.466021589842e+02 
       2.257019199969e-01       7.023450516179e+02 
       2.332507265573e-01       6.662497603670e+02 
       2.410532951092e-01       6.376500467561e+02 
       2.491191000905e-01       6.130277463736e+02 
       2.574583783729e-01       5.879968501244e+02 
       2.660822692186e-01       5.599645159098e+02 
       2.750029767129e-01       5.293498920885e+02 
       2.842339590932e-01       4.990696980666e+02 
       2.937901506986e-01       4.723865035873e+02 
       3.036882239917e-01       4.502244260539e+02 
       3.139469014066e-01       4.309149527164e+02 
       3.245873298622e-01       4.118957696088e+02 
       3.356335349692e-01       3.916965249182e+02 
       3.471129776984e-01       3.712374554538e+02 
       3.590572442604e-01       3.523162250614e+02 
       3.715029111963e-01       3.357399593764e+02 
       3.844926438014e-01       3.204824438724e+02 
       3.980766094867e-01       3.052540367456e+02 
       4.123143225424e-01       2.899895199373e+02 
       4.272770895514e-01       2.755724321512e+02 
       4.430513064280e-01       2.622866977148e+02 
       4.597429876895e-01       2.495896634348e+02 
       4.774841198427e-01       2.370011187472e+02 
       4.964417855955e-01       2.248382836427e+02 
       5.168316220286e-01       2.132991561423e+02 
       5.389382883030e-01       2.019562090175e+02 
       5.631477146531e-01       1.907925355656e+02 
       5.900000528688e-01       1.798582465933e+02 
       6.202809293798e-01       1.689090384028e+02 
       6.551879456580e-01       1.578773202284e+02 
       6.966555390757e-01       1.465223889008e+02 
       7.480392410019e-01       1.345689909659e+02 
       8.156736920819e-01       1.215424231073e+02 
       9.125570471616e-01       1.067356085020e+02 
       1.065335808555e+00       8.942000733796e+01 
       1.309261617887e+00       7.059730161829e+01 
       1.645183303518e+00       5.390543167318e+01 
       2.071101432664e+00       4.041544732772e+01 
       2.607361980256e+00       2.962220141745e+01 
       3.282474254553e+00       2.112069195775e+01 
       4.132390252617e+00       1.460112030023e+01 
       5.202371100470e+00       9.776686926124e+00 
       6.549397179965e+00       6.351302844447e+00 
       8.245202541791e+00       4.018162836437e+00 
       1.038009500525e+01       2.486679756397e+00 
       1.306776537895e+01       1.511902277087e+00 
       1.645134191092e+01       9.066052676718e-01 
       2.071101238977e+01       5.379159060822e-01 
       2.607361980147e+01       3.166269664075e-01 
       3.282474254553e+01       1.852698601406e-01 
