# Matter power spectrum P(k) at redshift z=1
# for k=1.03693e-05 to 32.8247 h/Mpc,
# number of wavenumbers equal to 127
#    1:k (h/Mpc)              2:P (Mpc/h)^3        
       1.036925660231e-05       1.964512370350e+01 
       1.305412063806e-05       2.451569923011e+01 
       1.643416419988e-05       3.059379466361e+01 
       2.068938693283e-05       3.817875788072e+01 
       2.604639496418e-05       4.764412506926e+01 
       3.279046850604e-05       5.945597407837e+01 
       4.128075406689e-05       7.419580278911e+01 
       5.196939031283e-05       9.258904529838e+01 
       6.542558610027e-05       1.155404819363e+02 
       8.236593292316e-05       1.441782475156e+02 
       1.036925660231e-04       1.799082441428e+02 
       1.305412063806e-04       2.244811553116e+02 
       1.643416419988e-04       2.800742820017e+02 
       2.068938693283e-04       3.493902551682e+02 
       2.604639496418e-04       4.357737170319e+02 
       3.279046850604e-04       5.433448909331e+02 
       4.128075406689e-04       6.771447821183e+02 
       5.196939031283e-04       8.432801807224e+02 
       6.542558610027e-04       1.049048726549e+03 
       8.236593292316e-04       1.303017677822e+03 
       1.036925660231e-03       1.615022378698e+03 
       1.305412063806e-03       1.996011704346e+03 
       1.643416419988e-03       2.457558428524e+03 
       2.068938693283e-03       3.010801823341e+03 
       2.604639496418e-03       3.664736680374e+03 
       3.279046850604e-03       4.423657215625e+03 
       4.128075406689e-03       5.283672300918e+03 
       5.196939031283e-03       6.227995046216e+03 
       6.542558610027e-03       7.221312955930e+03 
       8.236593292316e-03       8.203216037656e+03 
       1.036925660231e-02       9.082670814474e+03 
       1.305412063806e-02       9.733737237926e+03 
       1.643416419986e-02       1.000146602604e+04 
       2.068938680376e-02       9.731966758205e+03 
       2.604629037475e-02       8.849566028684e+03 
       3.277523661384e-02       7.482151028045e+03 
       4.075020544775e-02       6.089438459388e+03 
       4.756944096828e-02       5.274521388738e+03 
       5.249879919256e-02       4.874353818132e+03 
       5.654836530934e-02       4.625315637654e+03 
       6.015680518742e-02       4.437593634053e+03 
       6.351837274751e-02       4.273930985460e+03 
       6.673534423251e-02       4.115730658165e+03 
       6.986881481092e-02       3.953035467065e+03 
       7.295880231449e-02       3.781055596123e+03 
       7.603344677122e-02       3.598561565496e+03 
       7.911370394091e-02       3.406958402243e+03 
       8.221594671203e-02       3.209634311413e+03 
       8.535350339956e-02       3.011297582819e+03 
       8.853761578638e-02       2.817359089326e+03 
       9.177806151142e-02       2.633248489377e+03 
       9.508357270563e-02       2.463823287382e+03 
       9.846212578945e-02       2.312833752020e+03 
       1.019211468843e-01       2.182545601498e+03 
       1.054676602261e-01       2.073460246694e+03 
       1.091083970228e-01       1.984269459834e+03 
       1.128498761936e-01       1.911859642497e+03 
       1.166984647077e-01       1.851521372840e+03 
       1.206604228668e-01       1.797414316851e+03 
       1.247419383418e-01       1.743228406204e+03 
       1.289491517627e-01       1.683121036958e+03 
       1.332881759917e-01       1.612943891516e+03 
       1.377651107595e-01       1.531134784510e+03 
       1.423860540515e-01       1.439293200128e+03 
       1.471571114322e-01       1.341881511616e+03 
       1.520844043707e-01       1.245169588534e+03 
       1.571740785486e-01       1.155737515639e+03 
       1.624323130815e-01       1.078754849713e+03 
       1.678653315531e-01       1.016689523208e+03 
       1.734794157412e-01       9.688047679376e+02 
       1.792809229020e-01       9.311366822599e+02 
       1.852763074682e-01       8.978714780879e+02 
       1.914721480159e-01       8.625951392953e+02 
       1.978751803527e-01       8.203116070029e+02 
       2.044923375977e-01       7.701513254530e+02 
       2.113307981510e-01       7.155894140171e+02 
       2.183980425119e-01       6.623611712584e+02 
       2.257019199969e-01       6.155780931469e+02 
       2.332507265573e-01       5.778567721182e+02 
       2.410532951092e-01       5.485231502566e+02 
       2.491191000905e-01       5.236390579180e+02 
       2.574583783729e-01       4.982139478368e+02 
       2.660822692186e-01       4.692470330357e+02 
       2.750029767129e-01       4.371739071548e+02 
       2.842339590932e-01       4.053356734346e+02 
       2.937901506986e-01       3.775301183192e+02 
       3.036882239917e-01       3.548823532874e+02 
       3.139469014066e-01       3.354909298455e+02 
       3.245873298622e-01       3.163665539342e+02 
       3.356335349692e-01       2.957617947358e+02 
       3.471129776984e-01       2.747475784867e+02 
       3.590572442604e-01       2.554683513317e+02 
       3.715029111963e-01       2.389201396867e+02 
       3.844926438014e-01       2.238993933275e+02 
       3.980766094867e-01       2.088559284621e+02 
       4.123143225424e-01       1.937070474263e+02 
       4.272770895514e-01       1.795415772537e+02 
       4.430513064280e-01       1.667330007911e+02 
       4.597429876895e-01       1.546317236852e+02 
       4.774841198427e-01       1.426509299792e+02 
       4.964417855955e-01       1.312057292576e+02 
       5.168316220286e-01       1.205773123224e+02 
       5.389382883030e-01       1.102508757387e+02 
       5.631477146531e-01       1.002411145083e+02 
       5.900000528688e-01       9.066754044676e+01 
       6.202809293798e-01       8.128024012634e+01 
       6.551879456580e-01       7.209516883393e+01 
       6.966555390757e-01       6.294940604814e+01 
       7.480392410019e-01       5.373217292185e+01 
       8.156736920819e-01       4.424358146393e+01 
       9.125570471616e-01       3.429708049400e+01 
       1.065335808555e+00       2.402824064693e+01 
       1.309261617887e+00       1.484206092600e+01 
       1.645183303518e+00       8.622164741587e+00 
       2.071101432664e+00       4.941719393068e+00 
       2.607361980256e+00       2.808782236089e+00 
       3.282474254553e+00       1.584546438236e+00 
       4.132390252617e+00       8.878653491435e-01 
       5.202371100470e+00       4.943962921207e-01 
       6.549397179965e+00       2.737401195893e-01 
       8.245202541791e+00       1.507760082461e-01 
       1.038009500525e+01       8.264958938940e-02 
       1.306776537895e+01       4.510134381672e-02 
       1.645134191092e+01       2.451622202537e-02 
       2.071101238977e+01       1.327093542222e-02 
       2.607361980147e+01       7.157919004828e-03 
       3.282474254553e+01       3.847023366808e-03 
