# Matter power spectrum P(k) at redshift z=0
# for k=1.07343e-05 to 33.9798 h/Mpc,
# number of wavenumbers equal to 127
#    1:k (h/Mpc)              2:P (Mpc/h)^3        
       1.073428191381e-05       4.674214104139e+01 
       1.351366027865e-05       5.833078474864e+01 
       1.701269033115e-05       7.279251070224e+01 
       2.141770818087e-05       9.083953543083e+01 
       2.696329709129e-05       1.133605753102e+02 
       3.394477989398e-05       1.414645184325e+02 
       4.273394600629e-05       1.765347985481e+02 
       5.379885057356e-05       2.202971952922e+02 
       6.772874011237e-05       2.749039520519e+02 
       8.526543203626e-05       3.430382240838e+02 
       1.073428191381e-04       4.280430920094e+02 
       1.351366027865e-04       5.340800368331e+02 
       1.701269033115e-04       6.663219382601e+02 
       2.141770818087e-04       8.311846974845e+02 
       2.696329709129e-04       1.036599239315e+03 
       3.394477989398e-04       1.292320187311e+03 
       4.273394600629e-04       1.610258716205e+03 
       5.379885057356e-04       2.004814536983e+03 
       6.772874011237e-04       2.493169204296e+03 
       8.526543203626e-04       3.095481927233e+03 
       1.073428191381e-03       3.834865141906e+03 
       1.351366027865e-03       4.736867092438e+03 
       1.701269033115e-03       5.828105543367e+03 
       2.141770818087e-03       7.133743982628e+03 
       2.696329709129e-03       8.673269841330e+03 
       3.394477989398e-03       1.045429019890e+04 
       4.273394600629e-03       1.246417432608e+04 
       5.379885057356e-03       1.465871653201e+04 
       6.772874011237e-03       1.694903662165e+04 
       8.526543203626e-03       1.918667690769e+04 
       1.073428191381e-02       2.115040837076e+04 
       1.351366027865e-02       2.253886990489e+04 
       1.701269033106e-02       2.298969276238e+04 
       2.141770778122e-02       2.216159823776e+04 
       2.696305254804e-02       1.993070760356e+04 
       3.391644620622e-02       1.668838104099e+04 
       4.193258563673e-02       1.361868130808e+04 
       4.839767343096e-02       1.195119952911e+04 
       5.314764988930e-02       1.110683094025e+04 
       5.711197855395e-02       1.056395728237e+04 
       6.067414539858e-02       1.014459710788e+04 
       6.400883031278e-02       9.772293620158e+03 
       6.721003170067e-02       9.408025266743e+03 
       7.033478390912e-02       9.031204625107e+03 
       7.342088732631e-02       8.632178423997e+03 
       7.649517236332e-02       8.209081841910e+03 
       7.957777453421e-02       7.765983811623e+03 
       8.268452947487e-02       7.311165815700e+03 
       8.582840130682e-02       6.855839368072e+03 
       8.902037836172e-02       6.412523577836e+03 
       9.227005838470e-02       5.993604828229e+03 
       9.558604400244e-02       5.609922485584e+03 
       9.897621754119e-02       5.269672696789e+03 
       1.024479364356e-01       4.977448486106e+03 
       1.060081747710e-01       4.733801399520e+03 
       1.096636272992e-01       4.535055912825e+03 
       1.134207866930e-01       4.373479658737e+03 
       1.172860013280e-01       4.237806474760e+03 
       1.212655186626e-01       4.114292830405e+03 
       1.253655178476e-01       3.988410921319e+03 
       1.295921342445e-01       3.847220261181e+03 
       1.339514779042e-01       3.681891785471e+03 
       1.384496476320e-01       3.489904585360e+03 
       1.430927419926e-01       3.276017609995e+03 
       1.478868684189e-01       3.051313793951e+03 
       1.528381514737e-01       2.830523670676e+03 
       1.579527412367e-01       2.628551410310e+03 
       1.632368227407e-01       2.456513118533e+03 
       1.686966273548e-01       2.319029284037e+03 
       1.743384469897e-01       2.213176874134e+03 
       1.801686519896e-01       2.128951642609e+03 
       1.861937135680e-01       2.052741043829e+03 
       1.924202316384e-01       1.969727222038e+03 
       1.988549688965e-01       1.869649671948e+03 
       2.055048920266e-01       1.752082269194e+03 
       2.123772209364e-01       1.626217648894e+03 
       2.194794869923e-01       1.505414979067e+03 
       2.268196013225e-01       1.400757364004e+03 
       2.344059344177e-01       1.317227088230e+03 
       2.422474084789e-01       1.252032109034e+03 
       2.503536042824e-01       1.195335187146e+03 
       2.587348847645e-01       1.135884958878e+03 
       2.674025381127e-01       1.067946132480e+03 
       2.763689439272e-01       9.936875910989e+02 
       2.856477670462e-01       9.213942346505e+02 
       2.952541849881e-01       8.592859040462e+02 
       3.052051567676e-01       8.087287039559e+02 
       3.155197432455e-01       7.646669143211e+02 
       3.262194924026e-01       7.202877029048e+02 
       3.373289073130e-01       6.724746468407e+02 
       3.488760206217e-01       6.244640476834e+02 
       3.608931077237e-01       5.810501323396e+02 
       3.734175827071e-01       5.438101692290e+02 
       3.864931381610e-01       5.094226652423e+02 
       4.001712148369e-01       4.747139693131e+02 
       4.145129242022e-01       4.400514234772e+02 
       4.295916032107e-01       4.079709387156e+02 
       4.454962680570e-01       3.789036328884e+02 
       4.623363729377e-01       3.511397859340e+02 
       4.802485077558e-01       3.236849851256e+02 
       4.994060533556e-01       2.976801472274e+02 
       5.200334847215e-01       2.734196832228e+02 
       5.424282325173e-01       2.497379138168e+02 
       5.669953281543e-01       2.268897381367e+02 
       5.943046751958e-01       2.049782153943e+02 
       6.251905398209e-01       1.834599286167e+02 
       6.609347973435e-01       1.623867332650e+02 
       7.036284025853e-01       1.413589704746e+02 
       7.569419664102e-01       1.201056180944e+02 
       8.278982991043e-01       9.815771940323e+01 
       9.310408192884e-01       7.512689895236e+01 
       1.095520803398e+00       5.159562169677e+01 
       1.354277544331e+00       3.134351323184e+01 
       1.703048942808e+00       1.810501579061e+01 
       2.143981625149e+00       1.033009748395e+01 
       2.699112859746e+00       5.843333478563e+00 
       3.397981768398e+00       3.281004802958e+00 
       4.277805597050e+00       1.831039467184e+00 
       5.385438172841e+00       1.016395763479e+00 
       6.779864969436e+00       5.614429603742e-01 
       8.535344298556e+00       3.086743026572e-01 
       1.074536183586e+01       1.689889143701e-01 
       1.352760907409e+01       9.210957110939e-02 
       1.703025082419e+01       5.002588374581e-02 
       2.143981553181e+01       2.704219958644e-02 
       2.699112859717e+01       1.457891123440e-02 
       3.397981768398e+01       7.824108982119e-03 
